*TYPE		=  Raw
*CLASS		=  ASCII CLASS
*SAMPLE		=  30min
*COMMENT	=   
*FNAME		=  30min_Theta_2-Theta.asc
*DATE		=  19-Dec-18 17:10

*GROUP_COUNT	=  1
*GONIO		=  MiniFlex 300/600 +, 150
*ATTACHMENT	=  Standard Sample Holder
*ASC		=  0, 0, 0.000000, 0.000000
*FILTER		=  None
*C_MONOCHRO	=  Bent, 0.000000
*SLIT_NAME	=  0, IHS
*SLIT_NAME	=  1, DS +
*SLIT_NAME	=  2, SS
*SLIT_NAME	=  3, RS
*COUNTER	=  SC-70, 0
*POS_FORMAT	=  0
*SCAN_AXIS	=  2theta/theta
*MEAS_MODE	=  Continuous Scanning
*TARGET		=  29
*XRAY_CHAR	=  K-ALPHA
*WAVE_LENGTH1	=  1.54059
*WAVE_LENGTH2	=  1.54441
*THICKNESS	=  0, 0.000000
*MU		=  0, 0.000000
*SCAN_MODE	=  2theta/theta
*SPEED_DIM	=  sec./step
*XUNIT		=  deg.
*YUNIT		=  counts
*SCALE_MODE	=  1
*REP_COUNT	=  0
*SE_COUNT	=  0
*STD_MATERIAL	=  Unknown, Unknown, 0.000000, 0.000000, 0.000000, 0.000000, 0.000000, 0.000000
*LATT_CONS	=  0, Unknown, Unknown, 0.000000, 0.000000, 0.000000, 0.000000, 0.000000, 0.000000
*SEC_COUNT	=  1
*TSPEC_SIZE	=  0
*EXTRA_SIZE	=  0
*MEMO		=   

*BEGIN
*GROUP		=  0
*START		=  30
*STOP		=  90
*STEP		=  0.01
*OFFSET		=  0.000000
*SPEED		=  0.3
*SLIT_SPEC	=  0, 10.0mm, 10, 0.000000
*SLIT_SPEC	=  1, 1.250deg, 1.25, 0.000000
*SLIT_SPEC	=  2, 1.250deg, 1.25, 0.000000
*SLIT_SPEC	=  3, 0.3mm, 0.3, 0.000000
*KV		=  40
*MA		=  15
*LOW		=  0.000000
*HIGH		=  0.000000
*CTEMPER	=  0, 0.000000
*CTEMPER	=  1, 0.000000
*CTEMPER	=  2, 0.000000
*PAREX		=  0, 0.000000
*PAREX		=  1, 0.000000
*PAREX		=  2, 0.000000
*PAREX		=  3, 0.000000
*PAREX		=  4, 0.000000
*PAREX		=  5, 0.000000
*PAREX		=  6, 0.000000
*PAREX		=  7, 0.000000
*PAREX		=  8, 0.000000
*PAREX		=  9, 0.000000
*PAREX		=  10, 0.000000
*PAREX		=  11, 0.000000
*PAREX		=  12, 0.000000
*PAREX		=  13, 0.000000
*PAREX		=  14, 0.000000
*PAREX		=  15, 0.000000
*FULL_SCALE	=  828
*INDEX		=  0, 0, 0
*COUNT		=  6001
21, 16, 15, 16
16, 17, 15, 17
10, 20, 13, 9
10, 13, 11, 12
12, 15, 12, 20
15, 12, 10, 12
9, 15, 11, 7
8, 16, 16, 9
18, 18, 9, 18
11, 12, 20, 13
13, 10, 6, 15
9, 15, 17, 12
10, 16, 13, 17
10, 17, 12, 19
14, 12, 19, 13
14, 10, 15, 20
9, 10, 10, 15
13, 13, 8, 13
9, 11, 19, 16
17, 10, 18, 8
8, 16, 13, 11
21, 13, 11, 16
13, 11, 14, 8
13, 18, 16, 10
14, 13, 13, 19
10, 18, 20, 10
12, 15, 12, 16
10, 16, 16, 17
10, 13, 12, 12
7, 9, 17, 12
13, 10, 12, 16
16, 8, 18, 13
18, 13, 14, 19
17, 15, 13, 14
15, 14, 14, 8
12, 12, 14, 11
10, 13, 11, 12
12, 11, 12, 14
17, 12, 16, 14
13, 11, 12, 13
11, 17, 20, 14
19, 12, 11, 18
20, 15, 13, 22
16, 17, 13, 17
18, 15, 14, 12
15, 18, 15, 12
15, 14, 15, 13
17, 17, 12, 13
15, 15, 16, 15
10, 13, 13, 13
9, 11, 14, 14
12, 12, 11, 14
18, 15, 15, 15
15, 17, 14, 16
16, 15, 14, 19
19, 17, 21, 19
16, 11, 11, 14
15, 21, 18, 19
15, 15, 19, 16
19, 17, 11, 12
11, 19, 20, 14
13, 20, 26, 21
18, 17, 15, 23
15, 13, 17, 18
13, 16, 21, 16
14, 14, 13, 18
17, 19, 14, 12
14, 14, 18, 15
10, 14, 16, 17
17, 14, 8, 9
16, 14, 12, 18
15, 16, 18, 16
16, 18, 20, 15
15, 17, 15, 14
20, 14, 11, 12
16, 20, 18, 19
13, 10, 12, 16
17, 19, 20, 15
11, 11, 13, 16
21, 22, 18, 16
16, 18, 23, 18
13, 9, 14, 19
20, 19, 15, 12
16, 17, 14, 17
17, 13, 15, 13
10, 13, 15, 16
17, 16, 14, 12
16, 17, 15, 13
12, 21, 25, 19
14, 16, 19, 16
14, 20, 19, 18
17, 16, 20, 20
20, 23, 22, 17
21, 21, 15, 18
19, 21, 19, 16
19, 21, 17, 20
21, 18, 16, 16
19, 20, 18, 18
20, 19, 20, 21
18, 18, 19, 16
13, 13, 14, 12
15, 16, 14, 14
20, 20, 13, 16
21, 18, 17, 16
13, 20, 23, 20
22, 17, 13, 14
18, 17, 13, 16
15, 11, 13, 21
23, 17, 20, 23
17, 16, 18, 19
20, 21, 20, 21
20, 23, 25, 17
12, 11, 15, 18
19, 21, 20, 17
20, 19, 17, 20
23, 21, 20, 19
21, 25, 23, 21
17, 18, 22, 20
15, 17, 20, 21
18, 16, 22, 26
17, 14, 24, 21
18, 18, 22, 22
20, 14, 16, 17
20, 20, 18, 20
25, 17, 16, 21
20, 23, 21, 22
22, 16, 17, 17
18, 21, 25, 23
22, 22, 19, 22
26, 22, 19, 19
25, 22, 21, 15
19, 26, 24, 23
20, 17, 14, 19
24, 22, 21, 18
17, 26, 28, 17
20, 27, 22, 16
18, 25, 22, 22
24, 25, 27, 25
23, 17, 21, 25
22, 21, 24, 21
22, 25, 22, 22
27, 29, 31, 22
25, 24, 19, 22
25, 26, 21, 23
24, 24, 23, 19
19, 18, 20, 23
24, 20, 24, 26
27, 20, 22, 18
24, 22, 19, 23
25, 23, 27, 22
29, 32, 25, 27
28, 26, 26, 22
23, 24, 25, 18
26, 28, 27, 22
28, 39, 29, 27
31, 22, 23, 24
30, 27, 22, 18
21, 28, 25, 22
29, 27, 25, 27
21, 18, 25, 30
27, 31, 35, 25
24, 28, 36, 24
30, 22, 23, 21
24, 29, 30, 28
35, 26, 29, 34
27, 26, 28, 29
30, 26, 30, 26
26, 23, 30, 30
36, 24, 36, 33
28, 31, 27, 28
34, 30, 38, 36
37, 36, 25, 33
31, 33, 35, 32
25, 38, 38, 32
36, 31, 34, 36
35, 42, 39, 35
36, 28, 26, 33
30, 38, 38, 29
33, 42, 37, 37
37, 33, 29, 37
35, 38, 34, 33
40, 36, 33, 41
43, 29, 34, 48
40, 29, 35, 43
34, 39, 36, 35
40, 33, 35, 30
31, 33, 37, 44
46, 41, 41, 42
41, 41, 48, 45
41, 40, 42, 44
35, 44, 50, 44
34, 43, 48, 31
32, 43, 38, 38
44, 47, 42, 35
41, 45, 55, 51
49, 50, 41, 47
56, 53, 43, 50
43, 48, 53, 58
41, 40, 53, 49
55, 62, 66, 45
48, 58, 60, 46
41, 51, 56, 40
53, 50, 47, 56
55, 56, 43, 54
48, 68, 45, 44
62, 42, 62, 64
69, 62, 54, 60
51, 59, 61, 53
63, 51, 60, 55
67, 62, 64, 69
57, 64, 75, 69
53, 71, 74, 61
64, 67, 77, 63
72, 57, 64, 77
64, 80, 74, 64
76, 84, 82, 69
68, 92, 85, 73
63, 89, 84, 91
69, 71, 66, 91
75, 71, 82, 88
97, 82, 64, 67
70, 92, 87, 74
89, 75, 87, 79
98, 93, 83, 95
78, 82, 83, 91
76, 93, 79, 92
75, 107, 95, 86
102, 96, 88, 86
86, 86, 107, 100
89, 104, 104, 96
111, 103, 112, 112
107, 97, 85, 90
116, 105, 123, 112
94, 114, 111, 97
99, 123, 133, 113
104, 106, 121, 114
111, 106, 117, 108
119, 129, 138, 139
105, 118, 92, 122
135, 131, 130, 130
127, 122, 144, 126
135, 129, 122, 124
120, 132, 125, 114
131, 114, 126, 130
128, 123, 136, 142
143, 141, 123, 137
125, 152, 132, 131
134, 155, 139, 139
117, 142, 150, 137
140, 134, 138, 150
147, 153, 159, 140
165, 148, 144, 168
153, 163, 161, 170
153, 149, 164, 147
150, 157, 163, 160
173, 158, 148, 162
168, 179, 169, 160
185, 169, 176, 167
190, 167, 190, 185
152, 158, 183, 183
176, 188, 182, 157
177, 177, 167, 182
188, 189, 186, 176
207, 186, 176, 190
185, 190, 175, 182
175, 174, 181, 193
196, 171, 179, 176
161, 172, 194, 180
177, 180, 179, 192
207, 176, 185, 198
188, 187, 190, 182
200, 198, 192, 194
195, 203, 183, 194
180, 207, 207, 194
197, 187, 198, 176
163, 184, 179, 169
185, 192, 186, 186
207, 170, 178, 175
181, 184, 188, 182
201, 205, 186, 180
171, 175, 206, 179
180, 184, 195, 198
171, 158, 182, 180
197, 177, 162, 166
163, 168, 189, 190
175, 191, 177, 181
185, 165, 183, 173
163, 187, 176, 176
178, 172, 161, 186
190, 181, 161, 165
150, 161, 176, 171
172, 167, 148, 155
155, 166, 164, 159
172, 174, 162, 140
148, 144, 143, 148
168, 169, 162, 158
170, 181, 173, 167
148, 168, 154, 156
161, 147, 147, 150
138, 130, 147, 148
150, 136, 151, 130
134, 146, 141, 144
138, 133, 148, 139
131, 158, 133, 128
147, 149, 149, 146
154, 142, 134, 147
148, 139, 138, 135
133, 137, 137, 153
140, 123, 108, 127
124, 138, 124, 135
125, 117, 113, 117
109, 119, 113, 117
124, 116, 108, 125
116, 107, 114, 120
106, 115, 125, 109
118, 116, 111, 109
133, 135, 106, 95
104, 118, 114, 121
111, 108, 109, 120
110, 119, 115, 89
91, 100, 101, 110
116, 88, 97, 105
98, 100, 115, 105
109, 102, 91, 98
91, 99, 104, 93
94, 93, 91, 94
101, 101, 105, 99
93, 82, 87, 92
89, 101, 105, 97
87, 78, 89, 88
95, 87, 94, 89
88, 85, 92, 93
93, 98, 104, 87
84, 86, 87, 93
91, 87, 87, 78
87, 86, 89, 83
85, 88, 87, 96
95, 94, 98, 98
84, 82, 83, 80
91, 97, 102, 97
79, 75, 73, 72
84, 94, 84, 73
76, 73, 78, 73
71, 72, 78, 80
73, 80, 76, 73
78, 78, 71, 80
83, 68, 70, 80
68, 76, 90, 81
77, 83, 80, 86
90, 73, 75, 76
75, 78, 85, 78
74, 85, 79, 61
64, 72, 82, 80
77, 75, 75, 75
73, 86, 73, 74
88, 83, 74, 67
68, 74, 71, 66
69, 68, 74, 80
78, 75, 69, 74
80, 78, 64, 69
70, 66, 64, 62
64, 74, 75, 68
75, 82, 72, 75
81, 76, 78, 77
60, 62, 66, 72
67, 61, 70, 81
73, 62, 70, 75
64, 58, 61, 66
67, 62, 66, 74
73, 71, 64, 74
77, 66, 68, 75
74, 71, 80, 80
73, 75, 67, 57
65, 74, 79, 78
76, 71, 67, 70
77, 83, 72, 70
73, 60, 63, 67
67, 69, 62, 67
69, 73, 72, 76
77, 78, 80, 71
64, 74, 78, 75
65, 72, 72, 65
71, 80, 84, 79
78, 72, 67, 72
69, 71, 69, 70
75, 73, 67, 70
75, 73, 70, 73
94, 83, 68, 69
77, 75, 81, 70
59, 66, 71, 71
57, 59, 75, 73
77, 73, 67, 70
67, 58, 65, 77
76, 75, 78, 78
75, 70, 68, 73
62, 60, 76, 74
70, 74, 71, 70
81, 83, 71, 73
77, 73, 80, 86
80, 73, 74, 78
87, 78, 69, 68
67, 75, 71, 70
67, 70, 72, 74
77, 74, 84, 87
80, 66, 64, 74
84, 77, 78, 80
77, 76, 74, 75
73, 79, 74, 68
75, 69, 72, 69
60, 63, 78, 90
83, 65, 68, 80
79, 77, 78, 77
66, 69, 75, 74
74, 74, 80, 81
75, 70, 65, 74
79, 76, 70, 72
81, 77, 78, 87
89, 89, 75, 73
69, 72, 85, 82
77, 77, 76, 84
88, 76, 72, 76
81, 83, 75, 65
73, 75, 71, 73
76, 75, 73, 80
72, 69, 86, 77
68, 82, 87, 76
67, 77, 89, 78
73, 82, 73, 67
75, 70, 65, 66
68, 67, 73, 78
71, 71, 77, 73
72, 84, 80, 74
72, 73, 72, 66
67, 69, 77, 80
78, 77, 74, 77
78, 82, 80, 69
76, 73, 65, 66
67, 64, 63, 73
71, 70, 76, 68
68, 80, 79, 79
72, 70, 80, 83
75, 73, 70, 65
67, 72, 79, 70
63, 65, 63, 63
58, 64, 71, 71
73, 66, 62, 70
70, 63, 64, 76
81, 73, 73, 69
62, 59, 60, 67
69, 63, 62, 66
78, 71, 56, 70
77, 61, 61, 68
67, 59, 69, 70
58, 67, 67, 65
72, 71, 66, 66
70, 68, 66, 66
62, 54, 49, 51
52, 61, 67, 60
59, 58, 60, 68
69, 63, 58, 57
60, 64, 60, 67
66, 62, 68, 60
58, 62, 63, 61
60, 57, 56, 61
60, 52, 45, 46
55, 56, 57, 53
48, 50, 59, 67
60, 57, 49, 45
54, 52, 48, 51
55, 58, 57, 54
57, 56, 56, 53
42, 46, 51, 54
55, 52, 57, 52
44, 50, 48, 46
50, 48, 55, 54
52, 53, 48, 48
47, 45, 42, 48
44, 44, 47, 45
50, 53, 55, 57
56, 48, 41, 41
46, 51, 57, 50
40, 39, 39, 49
54, 43, 37, 37
42, 48, 47, 44
36, 35, 42, 50
48, 47, 46, 44
49, 47, 47, 45
43, 46, 41, 44
48, 43, 39, 40
40, 49, 50, 37
36, 42, 38, 41
44, 41, 43, 40
41, 45, 44, 44
37, 30, 28, 34
41, 42, 42, 40
40, 37, 39, 47
44, 41, 43, 40
35, 35, 36, 33
32, 36, 37, 36
38, 33, 34, 34
31, 33, 31, 41
45, 38, 34, 32
30, 29, 25, 25
33, 33, 28, 29
35, 36, 31, 27
27, 33, 37, 29
28, 34, 32, 29
29, 29, 31, 34
35, 36, 34, 33
31, 32, 34, 26
26, 28, 24, 25
29, 35, 31, 27
30, 30, 25, 27
31, 29, 31, 32
36, 35, 36, 36
30, 31, 28, 33
30, 27, 30, 26
28, 25, 29, 36
32, 32, 29, 21
23, 27, 29, 25
24, 33, 33, 29
30, 34, 30, 26
27, 28, 30, 25
25, 32, 31, 26
28, 33, 33, 29
25, 24, 26, 28
29, 31, 29, 29
26, 24, 24, 19
21, 27, 25, 22
22, 20, 16, 19
25, 23, 22, 27
27, 23, 22, 25
26, 22, 20, 20
22, 22, 23, 24
22, 23, 23, 22
21, 24, 25, 24
17, 13, 18, 26
31, 30, 33, 34
32, 24, 25, 23
26, 28, 22, 25
25, 24, 20, 21
23, 21, 23, 27
23, 21, 21, 19
23, 21, 17, 19
16, 16, 24, 27
23, 21, 19, 20
19, 18, 22, 21
27, 30, 21, 21
22, 21, 20, 19
24, 24, 21, 17
22, 22, 17, 20
23, 23, 15, 12
16, 16, 18, 24
23, 19, 17, 19
17, 16, 18, 23
17, 14, 19, 25
21, 15, 17, 22
25, 21, 19, 18
15, 15, 18, 18
16, 21, 23, 23
24, 22, 25, 22
18, 19, 20, 19
21, 20, 18, 18
14, 16, 22, 23
22, 18, 14, 16
18, 19, 21, 17
17, 19, 17, 15
20, 27, 20, 16
18, 19, 20, 20
16, 18, 22, 18
17, 20, 14, 14
21, 20, 18, 17
16, 19, 20, 14
13, 19, 23, 22
19, 18, 18, 16
15, 14, 18, 21
22, 17, 13, 17
19, 17, 16, 18
18, 23, 23, 17
16, 16, 19, 21
19, 21, 16, 18
17, 15, 21, 17
15, 15, 16, 20
18, 17, 18, 17
18, 15, 12, 14
21, 17, 11, 12
12, 14, 14, 13
15, 18, 17, 15
19, 14, 12, 15
15, 14, 14, 12
16, 18, 16, 19
18, 17, 13, 14
14, 12, 13, 17
22, 16, 14, 11
12, 21, 27, 20
18, 17, 15, 17
18, 17, 21, 18
17, 19, 15, 17
19, 15, 18, 16
14, 14, 12, 14
17, 15, 13, 12
14, 17, 13, 16
23, 19, 16, 17
17, 15, 17, 19
18, 13, 15, 19
17, 16, 15, 14
14, 16, 17, 17
14, 13, 21, 23
16, 20, 22, 18
14, 15, 17, 16
18, 15, 15, 16
17, 22, 17, 15
13, 15, 19, 17
15, 16, 18, 18
16, 13, 19, 18
16, 14, 12, 14
16, 15, 14, 17
17, 18, 14, 12
16, 18, 18, 13
14, 12, 18, 19
15, 16, 13, 17
12, 11, 13, 14
14, 18, 19, 17
17, 11, 15, 15
16, 14, 18, 18
19, 14, 12, 20
20, 19, 19, 18
20, 13, 11, 17
14, 15, 17, 13
15, 16, 12, 13
14, 14, 18, 16
13, 10, 14, 18
18, 15, 13, 13
15, 16, 16, 12
17, 13, 9, 13
11, 17, 20, 21
18, 12, 11, 16
15, 13, 14, 13
13, 12, 14, 17
10, 13, 17, 14
12, 12, 11, 13
13, 10, 11, 13
13, 18, 17, 14
12, 19, 19, 15
15, 18, 17, 16
15, 21, 16, 15
14, 11, 11, 11
14, 14, 18, 14
11, 16, 9, 13
16, 17, 14, 8
10, 11, 11, 15
15, 15, 15, 15
18, 18, 16, 14
16, 20, 16, 17
18, 14, 15, 17
13, 14, 15, 21
18, 12, 18, 15
22, 17, 21, 16
19, 23, 16, 10
10, 15, 14, 15
13, 16, 17, 17
12, 14, 20, 12
14, 17, 14, 11
16, 13, 14, 11
10, 11, 8, 12
9, 11, 12, 20
17, 14, 18, 12
13, 16, 20, 15
18, 10, 15, 14
16, 12, 17, 12
9, 9, 16, 13
14, 16, 12, 8
15, 14, 12, 14
21, 19, 14, 11
13, 20, 18, 11
13, 20, 16, 16
17, 11, 12, 15
17, 14, 13, 14
16, 11, 12, 11
10, 15, 16, 12
19, 10, 13, 11
14, 12, 20, 13
14, 11, 14, 18
17, 20, 14, 14
11, 11, 13, 19
15, 16, 9, 11
11, 19, 12, 14
17, 16, 18, 14
11, 13, 16, 22
13, 17, 14, 18
9, 9, 13, 12
9, 13, 7, 10
15, 15, 14, 13
20, 10, 17, 21
8, 16, 13, 15
13, 13, 14, 20
11, 16, 10, 10
17, 9, 14, 12
9, 18, 14, 20
10, 14, 7, 15
26, 15, 16, 17
8, 14, 22, 15
14, 15, 16, 16
14, 10, 4, 14
18, 9, 12, 17
15, 15, 13, 18
11, 11, 17, 8
13, 20, 12, 15
14, 13, 11, 13
10, 17, 17, 16
17, 17, 9, 11
12, 14, 16, 15
23, 11, 14, 17
13, 11, 18, 18
19, 16, 12, 17
19, 12, 8, 11
14, 13, 19, 11
15, 22, 19, 13
15, 9, 10, 13
16, 17, 14, 12
14, 18, 15, 13
9, 14, 14, 14
15, 12, 17, 17
9, 15, 14, 17
7, 16, 15, 15
18, 18, 14, 8
15, 9, 16, 10
12, 16, 17, 13
11, 16, 13, 16
21, 14, 11, 19
10, 13, 22, 9
14, 16, 12, 17
15, 13, 14, 13
16, 15, 13, 13
12, 12, 18, 15
15, 10, 16, 14
14, 16, 19, 18
13, 11, 18, 12
9, 14, 17, 14
15, 12, 12, 8
15, 13, 13, 18
14, 10, 10, 16
13, 14, 16, 11
12, 14, 13, 15
19, 19, 12, 19
14, 11, 14, 10
19, 14, 8, 15
20, 16, 15, 16
14, 11, 12, 14
14, 12, 10, 15
18, 16, 14, 16
16, 12, 18, 20
17, 15, 13, 8
10, 17, 18, 13
11, 11, 10, 14
11, 11, 16, 16
11, 12, 15, 8
11, 16, 13, 17
17, 15, 13, 15
13, 14, 12, 18
15, 16, 14, 19
17, 14, 13, 18
20, 18, 18, 17
15, 11, 12, 9
13, 13, 12, 16
14, 13, 17, 11
14, 14, 12, 9
14, 13, 15, 15
17, 18, 15, 17
17, 15, 17, 15
12, 16, 20, 14
10, 15, 13, 12
17, 19, 13, 11
17, 19, 17, 13
12, 13, 13, 12
11, 12, 12, 18
20, 16, 12, 15
14, 14, 15, 15
13, 13, 12, 13
14, 16, 15, 13
16, 13, 8, 11
12, 10, 10, 15
15, 9, 12, 13
20, 22, 17, 18
13, 11, 14, 14
12, 13, 15, 15
13, 17, 19, 13
13, 14, 17, 14
9, 10, 13, 14
15, 17, 15, 12
13, 15, 16, 17
19, 16, 15, 16
13, 10, 10, 16
17, 18, 17, 12
16, 19, 16, 16
19, 17, 16, 13
12, 15, 13, 12
15, 14, 8, 9
19, 20, 13, 11
14, 17, 16, 17
16, 12, 16, 15
11, 12, 13, 15
13, 13, 14, 15
14, 17, 18, 15
16, 20, 17, 21
16, 16, 17, 15
15, 17, 17, 16
14, 11, 14, 15
17, 16, 12, 16
18, 13, 14, 16
15, 16, 14, 15
18, 17, 15, 13
12, 12, 11, 17
10, 11, 14, 12
11, 13, 11, 11
16, 18, 16, 14
15, 14, 15, 14
11, 13, 15, 14
12, 10, 17, 18
17, 14, 16, 16
14, 10, 11, 13
12, 13, 17, 21
13, 14, 15, 16
16, 15, 15, 18
20, 19, 15, 13
18, 19, 17, 12
9, 14, 16, 17
19, 19, 14, 11
13, 14, 15, 14
14, 18, 20, 17
13, 14, 19, 24
18, 14, 14, 18
18, 14, 19, 12
14, 16, 10, 16
17, 14, 17, 12
14, 14, 17, 20
16, 19, 14, 12
11, 11, 17, 14
13, 16, 13, 9
15, 16, 12, 11
14, 19, 15, 14
14, 15, 18, 14
19, 16, 11, 15
14, 11, 17, 18
16, 17, 14, 13
16, 14, 15, 12
23, 11, 15, 18
20, 12, 21, 15
15, 10, 17, 14
17, 20, 15, 21
22, 15, 14, 18
19, 15, 20, 21
18, 17, 19, 19
16, 17, 16, 19
18, 10, 13, 15
20, 22, 16, 14
17, 19, 16, 16
21, 17, 26, 15
16, 15, 16, 12
11, 16, 16, 14
17, 17, 15, 19
21, 20, 22, 20
14, 13, 16, 16
23, 15, 19, 16
17, 21, 23, 10
14, 20, 24, 17
21, 17, 17, 20
15, 20, 17, 21
13, 15, 19, 18
18, 20, 17, 17
22, 19, 12, 13
20, 17, 17, 11
20, 19, 12, 18
29, 25, 24, 13
24, 17, 16, 11
18, 17, 18, 21
26, 23, 25, 18
17, 18, 20, 11
17, 17, 21, 14
23, 12, 18, 18
16, 17, 20, 19
20, 14, 18, 12
21, 15, 17, 26
24, 25, 23, 25
15, 14, 21, 21
22, 17, 21, 27
20, 24, 19, 21
14, 28, 22, 21
16, 17, 23, 23
34, 23, 22, 17
24, 14, 26, 25
22, 20, 22, 22
28, 21, 25, 14
16, 23, 21, 22
19, 27, 27, 21
30, 18, 24, 24
22, 18, 24, 20
25, 24, 26, 20
20, 12, 14, 17
18, 25, 22, 28
17, 22, 39, 25
23, 21, 30, 23
24, 22, 23, 25
22, 17, 26, 27
28, 18, 25, 30
27, 17, 20, 31
37, 23, 29, 21
25, 34, 24, 29
38, 25, 19, 26
27, 31, 30, 20
23, 20, 28, 23
30, 31, 21, 34
23, 27, 26, 32
25, 29, 32, 36
26, 29, 27, 36
22, 31, 35, 26
27, 33, 28, 32
30, 29, 29, 20
35, 38, 37, 35
24, 27, 32, 41
41, 44, 26, 33
29, 38, 32, 33
34, 37, 31, 31
35, 34, 16, 27
27, 38, 32, 36
34, 30, 34, 22
36, 38, 35, 37
32, 31, 27, 46
26, 33, 45, 36
37, 16, 33, 33
32, 37, 44, 37
28, 37, 34, 29
47, 37, 31, 41
30, 37, 39, 36
31, 24, 40, 43
36, 31, 31, 36
36, 35, 37, 44
29, 52, 37, 41
26, 41, 39, 37
39, 36, 34, 41
31, 36, 35, 41
44, 45, 32, 40
44, 39, 44, 39
31, 46, 46, 34
39, 42, 42, 40
40, 32, 45, 42
42, 34, 44, 38
51, 34, 41, 38
49, 41, 41, 33
39, 52, 40, 35
45, 34, 41, 39
49, 28, 39, 30
37, 40, 45, 42
53, 60, 35, 41
54, 35, 50, 39
54, 43, 34, 41
47, 41, 40, 33
48, 36, 45, 55
55, 63, 37, 43
38, 48, 49, 36
36, 43, 47, 38
47, 47, 44, 59
36, 55, 47, 47
54, 46, 59, 52
42, 49, 43, 40
51, 48, 51, 53
49, 53, 46, 59
45, 40, 54, 49
49, 61, 46, 50
43, 41, 67, 39
50, 51, 53, 46
44, 53, 34, 54
55, 52, 45, 49
63, 44, 53, 42
54, 41, 47, 52
45, 44, 47, 42
48, 60, 46, 42
63, 48, 42, 49
57, 39, 50, 63
45, 37, 52, 45
47, 37, 42, 46
42, 66, 52, 40
45, 52, 68, 53
54, 43, 46, 54
59, 53, 54, 43
56, 57, 60, 57
50, 39, 52, 41
47, 43, 55, 62
47, 41, 48, 52
53, 54, 54, 55
56, 47, 60, 52
45, 44, 50, 41
49, 42, 48, 50
52, 47, 44, 53
50, 57, 51, 45
53, 41, 54, 53
51, 53, 51, 48
43, 47, 44, 42
46, 49, 52, 53
50, 46, 57, 55
52, 47, 41, 59
60, 52, 57, 44
54, 53, 49, 42
39, 50, 44, 38
46, 44, 44, 40
52, 58, 46, 55
44, 45, 45, 51
53, 49, 44, 44
41, 51, 48, 49
44, 50, 44, 43
44, 45, 53, 43
35, 46, 46, 53
49, 45, 49, 43
44, 47, 54, 44
46, 45, 37, 47
44, 46, 44, 44
40, 43, 36, 41
51, 45, 48, 45
43, 49, 37, 44
47, 48, 43, 47
46, 43, 35, 43
39, 43, 41, 46
46, 47, 43, 38
51, 51, 44, 43
39, 38, 37, 38
42, 47, 44, 45
47, 43, 48, 44
48, 50, 37, 41
36, 43, 46, 38
35, 40, 35, 40
40, 35, 37, 48
47, 43, 39, 36
40, 42, 39, 35
38, 42, 37, 32
33, 34, 39, 40
44, 43, 39, 38
36, 36, 44, 42
36, 35, 32, 30
35, 35, 35, 33
38, 39, 40, 41
36, 38, 38, 37
36, 33, 37, 30
31, 38, 38, 38
33, 28, 31, 34
38, 35, 28, 29
28, 31, 31, 31
36, 41, 36, 34
34, 30, 37, 42
34, 35, 35, 28
26, 27, 30, 30
26, 25, 26, 32
36, 30, 26, 27
31, 34, 30, 28
32, 31, 30, 30
29, 35, 35, 33
36, 35, 29, 30
33, 35, 33, 35
25, 23, 31, 29
30, 31, 25, 25
24, 20, 24, 31
35, 29, 30, 30
26, 33, 34, 28
25, 22, 20, 28
27, 25, 29, 25
27, 33, 35, 32
21, 21, 30, 28
22, 29, 22, 24
21, 27, 26, 19
21, 25, 31, 23
22, 21, 21, 21
28, 30, 34, 28
26, 25, 23, 26
24, 27, 27, 35
27, 29, 28, 22
22, 24, 24, 29
22, 25, 21, 28
30, 27, 20, 25
25, 29, 24, 29
28, 29, 32, 33
25, 27, 29, 26
22, 20, 16, 24
22, 20, 20, 17
26, 25, 26, 23
26, 22, 23, 14
24, 25, 30, 21
27, 23, 18, 24
21, 23, 19, 20
24, 24, 17, 18
22, 21, 29, 25
17, 22, 21, 29
16, 26, 22, 18
32, 22, 27, 22
18, 21, 22, 12
21, 11, 17, 19
23, 24, 22, 21
18, 23, 21, 21
32, 17, 25, 16
26, 26, 24, 21
22, 26, 22, 22
17, 23, 20, 12
20, 15, 15, 19
22, 30, 18, 21
23, 21, 20, 21
17, 19, 18, 14
17, 21, 23, 19
18, 19, 18, 21
18, 20, 17, 23
19, 27, 16, 22
16, 22, 16, 16
18, 24, 24, 25
21, 22, 22, 25
21, 19, 20, 23
18, 19, 15, 14
20, 12, 17, 21
23, 15, 16, 24
16, 19, 15, 14
20, 12, 21, 21
22, 17, 16, 19
19, 13, 21, 25
22, 19, 24, 15
17, 23, 18, 14
15, 16, 17, 14
18, 18, 17, 19
17, 17, 19, 22
20, 15, 19, 21
17, 19, 16, 14
25, 20, 19, 14
18, 20, 13, 16
15, 19, 18, 25
17, 19, 24, 19
19, 17, 16, 16
21, 13, 10, 18
15, 18, 14, 16
18, 23, 17, 13
22, 18, 18, 20
18, 16, 18, 20
16, 13, 17, 22
20, 16, 13, 12
13, 19, 22, 18
20, 19, 19, 15
22, 22, 17, 12
15, 15, 19, 18
17, 17, 18, 23
21, 17, 21, 23
21, 17, 16, 21
22, 15, 16, 16
16, 16, 21, 16
17, 16, 11, 15
20, 26, 20, 13
16, 19, 15, 16
18, 14, 16, 19
19, 13, 11, 20
27, 23, 19, 19
17, 16, 18, 19
15, 13, 14, 17
15, 13, 15, 15
15, 16, 19, 15
17, 18, 18, 16
12, 13, 13, 16
16, 16, 19, 14
11, 15, 18, 17
16, 20, 18, 12
15, 19, 20, 21
18, 15, 14, 13
17, 20, 16, 18
24, 23, 19, 18
17, 14, 13, 18
19, 18, 15, 14
19, 20, 20, 24
22, 20, 17, 14
19, 25, 18, 15
24, 24, 20, 20
18, 20, 25, 20
23, 22, 16, 18
19, 20, 22, 16
14, 17, 15, 21
22, 16, 16, 14
14, 15, 16, 17
17, 14, 21, 24
16, 21, 22, 20
21, 23, 20, 15
15, 17, 18, 16
17, 18, 19, 18
21, 22, 20, 19
15, 14, 19, 18
13, 22, 23, 20
23, 21, 12, 18
23, 22, 16, 15
15, 19, 20, 18
18, 18, 18, 16
16, 19, 17, 14
20, 17, 18, 16
14, 20, 23, 20
19, 22, 23, 20
18, 17, 16, 18
16, 14, 14, 17
23, 21, 16, 17
17, 19, 20, 16
17, 15, 20, 18
19, 19, 18, 20
19, 20, 18, 19
16, 15, 17, 18
21, 14, 16, 16
21, 19, 20, 24
18, 13, 15, 15
20, 16, 18, 12
13, 20, 18, 18
15, 18, 21, 26
18, 17, 23, 21
15, 19, 18, 19
21, 21, 20, 13
26, 20, 19, 16
19, 15, 19, 18
18, 22, 18, 13
16, 18, 18, 14
13, 19, 24, 24
22, 18, 21, 23
27, 21, 15, 15
28, 27, 20, 26
20, 21, 21, 12
24, 18, 20, 22
22, 22, 21, 24
15, 16, 23, 19
21, 25, 22, 25
31, 29, 23, 24
33, 26, 18, 24
24, 26, 24, 24
24, 24, 22, 17
24, 20, 19, 25
25, 22, 24, 26
16, 21, 22, 23
23, 28, 31, 25
20, 21, 22, 16
19, 22, 21, 26
27, 26, 22, 16
22, 19, 20, 25
24, 22, 22, 23
26, 22, 26, 20
18, 22, 18, 26
21, 30, 23, 16
22, 18, 15, 23
17, 22, 22, 19
25, 34, 22, 20
27, 34, 31, 23
25, 21, 22, 21
22, 26, 21, 21
25, 25, 28, 28
30, 20, 25, 26
32, 29, 26, 29
19, 28, 37, 34
31, 29, 30, 34
33, 31, 23, 23
27, 34, 30, 31
34, 36, 30, 26
32, 26, 27, 26
33, 22, 22, 17
30, 36, 35, 28
29, 26, 28, 31
33, 25, 29, 31
26, 35, 36, 34
31, 32, 32, 32
24, 26, 29, 27
34, 29, 28, 25
23, 34, 27, 35
29, 26, 33, 37
30, 31, 25, 30
34, 35, 35, 30
41, 33, 31, 29
34, 33, 34, 36
34, 30, 28, 39
34, 37, 30, 31
30, 37, 35, 32
28, 30, 41, 33
40, 37, 30, 39
45, 44, 38, 31
28, 50, 35, 30
35, 41, 31, 39
36, 36, 41, 40
46, 28, 33, 34
32, 44, 41, 37
42, 43, 40, 38
33, 40, 34, 31
35, 41, 44, 37
35, 40, 50, 38
41, 42, 38, 40
37, 48, 38, 42
40, 40, 38, 33
36, 42, 43, 55
40, 37, 38, 40
41, 41, 36, 41
40, 44, 54, 39
46, 56, 48, 42
42, 47, 46, 47
59, 48, 39, 46
47, 50, 51, 43
33, 34, 37, 55
47, 43, 40, 52
45, 41, 43, 51
50, 52, 48, 50
41, 42, 42, 44
52, 54, 35, 35
51, 43, 46, 51
45, 40, 48, 51
37, 52, 53, 44
44, 48, 49, 48
46, 51, 54, 51
62, 56, 51, 52
50, 53, 50, 44
46, 46, 49, 59
56, 53, 67, 56
48, 57, 65, 55
51, 55, 56, 60
53, 48, 57, 57
56, 57, 50, 59
58, 55, 56, 56
48, 64, 59, 70
59, 55, 52, 50
56, 58, 51, 52
55, 56, 57, 43
51, 60, 47, 55
54, 58, 55, 62
66, 66, 64, 56
58, 55, 57, 50
60, 60, 60, 61
54, 50, 50, 47
47, 56, 54, 65
64, 62, 56, 62
60, 62, 61, 58
54, 51, 54, 57
62, 59, 56, 63
61, 51, 59, 62
58, 55, 61, 57
54, 57, 60, 62
63, 63, 61, 49
55, 58, 60, 67
68, 69, 63, 65
61, 64, 61, 59
55, 54, 62, 61
63, 66, 55, 51
53, 62, 65, 63
66, 68, 58, 55
61, 66, 64, 49
58, 59, 68, 65
59, 48, 56, 67
65, 59, 60, 54
54, 59, 54, 52
58, 61, 66, 54
55, 54, 60, 62
58, 58, 69, 67
55, 61, 70, 69
63, 62, 61, 71
70, 55, 54, 54
55, 61, 61, 64
69, 68, 54, 65
68, 62, 65, 57
64, 65, 53, 62
66, 60, 58, 64
61, 56, 56, 67
62, 54, 61, 54
51, 58, 51, 54
56, 55, 53, 46
49, 55, 60, 57
55, 57, 58, 58
62, 65, 62, 66
69, 62, 53, 47
58, 66, 58, 53
51, 61, 64, 62
61, 64, 66, 58
57, 60, 52, 58
60, 59, 56, 51
60, 59, 50, 45
48, 46, 49, 48
51, 55, 54, 53
49, 55, 62, 63
64, 61, 56, 57
45, 43, 45, 46
55, 59, 60, 54
55, 54, 53, 55
59, 60, 57, 49
51, 60, 53, 53
55, 48, 48, 48
54, 54, 45, 52
53, 50, 51, 54
50, 49, 54, 54
54, 52, 46, 49
50, 46, 46, 48
47, 51, 49, 42
45, 44, 48, 50
43, 45, 43, 38
38, 43, 41, 44
49, 43, 46, 42
47, 47, 43, 41
40, 47, 50, 52
48, 38, 47, 45
53, 54, 47, 43
44, 46, 50, 51
48, 39, 41, 49
46, 40, 38, 42
50, 45, 50, 52
41, 46, 43, 39
41, 36, 38, 44
50, 45, 46, 37
46, 41, 40, 41
43, 51, 40, 42
40, 40, 55, 50
44, 37, 45, 45
40, 40, 48, 44
39, 43, 39, 40
37, 36, 37, 52
42, 40, 44, 39
46, 57, 47, 48
40, 42, 40, 41
35, 40, 41, 46
47, 42, 48, 40
36, 42, 50, 37
39, 35, 41, 51
40, 41, 50, 46
44, 44, 29, 34
39, 41, 49, 50
42, 29, 37, 38
38, 38, 45, 33
30, 41, 46, 37
38, 44, 36, 38
50, 46, 39, 43
46, 38, 44, 43
42, 32, 33, 37
43, 42, 41, 31
38, 35, 40, 33
38, 30, 36, 31
35, 46, 35, 29
33, 34, 47, 42
43, 40, 37, 43
39, 41, 33, 36
24, 32, 36, 41
34, 31, 38, 33
30, 33, 36, 39
41, 37, 49, 47
41, 36, 39, 35
34, 42, 34, 46
34, 37, 47, 38
33, 37, 35, 31
33, 39, 34, 37
44, 37, 30, 32
39, 28, 36, 37
41, 27, 42, 32
34, 33, 33, 28
25, 28, 32, 46
36, 36, 43, 31
35, 36, 39, 34
44, 44, 37, 39
39, 29, 34, 28
37, 32, 35, 42
30, 36, 18, 34
39, 27, 31, 41
33, 31, 37, 31
29, 25, 25, 26
25, 45, 23, 42
33, 43, 39, 35
38, 33, 30, 38
38, 25, 38, 37
23, 29, 25, 28
29, 36, 33, 31
30, 30, 35, 30
34, 31, 38, 29
36, 26, 32, 37
33, 37, 34, 21
27, 25, 27, 37
23, 37, 29, 33
28, 29, 28, 30
34, 27, 31, 31
22, 32, 30, 26
42, 23, 21, 34
25, 30, 30, 30
25, 36, 31, 34
31, 21, 30, 29
24, 28, 23, 34
28, 32, 32, 30
31, 34, 25, 24
24, 22, 26, 32
20, 27, 29, 28
25, 27, 21, 24
28, 30, 24, 26
28, 29, 28, 28
27, 23, 24, 21
27, 24, 28, 23
23, 26, 24, 25
24, 26, 30, 22
24, 28, 25, 28
29, 24, 27, 23
23, 26, 21, 19
20, 24, 34, 28
23, 22, 26, 26
24, 23, 24, 22
27, 26, 25, 23
18, 21, 24, 19
26, 30, 26, 23
19, 19, 22, 34
33, 35, 31, 24
28, 28, 30, 29
20, 26, 25, 20
19
*END

*EOF
